wavelength,FMN_libre,NQR_ox,NQR_red,NQR_redox
350,0.37179,0.30771,0.16219,0.16584
351,0.37814,0.30986,0.1594,0.16725
352,0.38612,0.30883,0.15993,0.1685
353,0.39414,0.31041,0.15512,0.16925
354,0.40323,0.31426,0.15273,0.16969
355,0.40997,0.31367,0.15325,0.17214
356,0.41676,0.31406,0.14908,0.17305
357,0.42331,0.31349,0.14769,0.17798
358,0.43129,0.3143,0.14722,0.17955
359,0.43788,0.31479,0.14186,0.18198
360,0.44523,0.31827,0.1395,0.18088
361,0.45,0.31795,0.13603,0.18242
362,0.45483,0.32019,0.13863,0.18614
363,0.46198,0.31768,0.13479,0.18681
364,0.46474,0.31844,0.1326,0.18604
365,0.46714,0.31795,0.12939,0.18749
366,0.47391,0.3163,0.12711,0.18983
367,0.47706,0.31696,0.124,0.19003
368,0.47854,0.31715,0.12257,0.19218
369,0.48266,0.31676,0.12218,0.19412
370,0.48197,0.32048,0.12141,0.19662
371,0.48497,0.31839,0.1186,0.19812
372,0.48572,0.31854,0.1165,0.19888
373,0.48786,0.31966,0.11301,0.19798
374,0.48749,0.31841,0.11083,0.19826
375,0.4855,0.31788,0.11021,0.19942
376,0.48191,0.31595,0.10739,0.1973
377,0.48068,0.31377,0.10449,0.19784
378,0.47704,0.31367,0.10411,0.19915
379,0.4699,0.31207,0.10255,0.19808
380,0.46457,0.31006,0.09854,0.19614
381,0.45784,0.31132,0.09693,0.19904
382,0.44863,0.30911,0.09111,0.19471
383,0.44265,0.30423,0.09229,0.19502
384,0.43145,0.30149,0.08974,0.19092
385,0.42287,0.29948,0.08891,0.19188
386,0.41317,0.29383,0.08283,0.18418
387,0.40179,0.29078,0.08586,0.18094
388,0.39174,0.28642,0.08099,0.17683
389,0.38237,0.28142,0.07971,0.17278
390,0.37025,0.27723,0.07849,0.17161
391,0.36121,0.273,0.07456,0.16601
392,0.35185,0.26872,0.07323,0.16621
393,0.344,0.26324,0.06803,0.16035
394,0.33299,0.25892,0.06723,0.15335
395,0.32688,0.25348,0.06428,0.15257
396,0.3217,0.25128,0.06332,0.15006
397,0.31569,0.24544,0.05748,0.14552
398,0.31323,0.24413,0.05877,0.14317
399,0.30865,0.24191,0.05446,0.14076
400,0.30953,0.23717,0.05573,0.13852
401,0.30771,0.23469,0.05022,0.13641
402,0.31019,0.23423,0.04963,0.13437
403,0.30918,0.23382,0.04738,0.13535
404,0.31536,0.23437,0.04722,0.13658
405,0.31835,0.2323,0.04704,0.13665
406,0.32396,0.23271,0.04473,0.13561
407,0.32685,0.23317,0.04352,0.13773
408,0.33483,0.23402,0.04304,0.1387
409,0.3402,0.23638,0.04107,0.1403
410,0.34927,0.23728,0.03822,0.14107
411,0.35515,0.24001,0.03786,0.14265
412,0.36167,0.24173,0.03725,0.14594
413,0.37054,0.24279,0.03749,0.14845
414,0.37889,0.24402,0.03751,0.14979
415,0.38871,0.24657,0.0377,0.15329
416,0.39842,0.24952,0.03724,0.15638
417,0.40447,0.252,0.0355,0.15742
418,0.41353,0.25493,0.03331,0.16225
419,0.42171,0.25919,0.03222,0.16346
420,0.43171,0.26018,0.0317,0.16537
421,0.44087,0.26194,0.03174,0.16839
422,0.44732,0.26696,0.03254,0.17164
423,0.4568,0.26695,0.02994,0.17434
424,0.46507,0.27092,0.03216,0.17823
425,0.471,0.27182,0.03025,0.17843
426,0.48021,0.27415,0.03159,0.18088
427,0.48815,0.27431,0.02984,0.1829
428,0.49594,0.27728,0.02894,0.18486
429,0.50209,0.27986,0.02987,0.18818
430,0.51129,0.28089,0.02914,0.18868
431,0.51642,0.28424,0.02839,0.1912
432,0.52757,0.28419,0.02533,0.19525
433,0.53194,0.28614,0.02546,0.19571
434,0.54165,0.28807,0.0267,0.19907
435,0.54605,0.28936,0.027,0.20183
436,0.55452,0.29496,0.02378,0.20292
437,0.56099,0.29616,0.02287,0.20704
438,0.56599,0.301,0.02481,0.20902
439,0.56926,0.30318,0.02482,0.21227
440,0.57687,0.30488,0.02565,0.2163
441,0.57957,0.30739,0.02623,0.21743
442,0.58433,0.31059,0.02411,0.22221
443,0.58551,0.31394,0.02311,0.22434
444,0.59032,0.31503,0.02463,0.22602
445,0.5891,0.31529,0.02196,0.22687
446,0.59119,0.31755,0.02579,0.23104
447,0.58962,0.31852,0.02452,0.23216
448,0.59068,0.31615,0.02092,0.22922
449,0.58733,0.31724,0.02115,0.22813
450,0.5855,0.31849,0.02219,0.22925
451,0.58077,0.31609,0.02114,0.22655
452,0.57818,0.31333,0.01936,0.22677
453,0.57263,0.31368,0.01784,0.22423
454,0.56995,0.31102,0.01767,0.22167
455,0.56519,0.30654,0.01892,0.21935
456,0.55948,0.30578,0.0178,0.21874
457,0.55596,0.30279,0.01782,0.21627
458,0.55177,0.30107,0.01744,0.21419
459,0.5456,0.29666,0.01669,0.21165
460,0.53946,0.29448,0.01842,0.21038
461,0.53418,0.29511,0.01824,0.20732
462,0.52839,0.29117,0.01664,0.20716
463,0.52422,0.29,0.01748,0.20393
464,0.51903,0.28763,0.01537,0.20249
465,0.51259,0.28226,0.01439,0.20024
466,0.50616,0.2811,0.01441,0.19885
467,0.49874,0.28017,0.01531,0.20118
468,0.49259,0.27915,0.0164,0.19818
469,0.48469,0.27864,0.01839,0.19805
470,0.47745,0.27513,0.01821,0.19655
471,0.46766,0.27263,0.01593,0.1946
472,0.45897,0.27104,0.01501,0.19195
473,0.44711,0.26961,0.0126,0.18982
474,0.43713,0.26903,0.01389,0.18643
475,0.4261,0.26489,0.01497,0.18402
476,0.41378,0.26187,0.01245,0.18134
477,0.40173,0.25677,0.01376,0.17855
478,0.38662,0.25285,0.01463,0.17615
479,0.37299,0.24728,0.01082,0.17247
480,0.35621,0.24277,0.00274,0.15834
481,0.3412,0.235,0.00534,0.15261
482,0.32683,0.23101,0.00419,0.14812
483,0.31201,0.22346,0.00433,0.14285
484,0.29695,0.21791,0.00378,0.13594
485,0.28007,0.21247,0.00352,0.12828
486,0.26366,0.20466,0.00201,0.12064
487,0.24749,0.19695,0.00376,0.11291
488,0.23417,0.18979,0.00234,0.10579
489,0.2165,0.18501,0.00254,0.10029
490,0.2038,0.1759,0.00143,0.09301
491,0.18761,0.17097,8.77738E-4,0.08812
492,0.17395,0.16311,0.00253,0.08122
493,0.15859,0.15505,-1.69873E-5,0.07296
494,0.14622,0.14782,9.93788E-4,0.06601
495,0.13191,0.14127,-3.14713E-4,0.06216
496,0.1211,0.13318,0.00102,0.05511
497,0.11141,0.12714,-0.00169,0.04923
498,0.0994,0.1224,3.8743E-5,0.04368
499,0.09157,0.1161,8.61645E-4,0.03868
500,0.08149,0.1111,-0.0016,0.03375
501,0.07445,0.10847,-0.00227,0.03173
502,0.06697,0.10307,-0.00364,0.02898
503,0.06197,0.09887,-0.00322,0.02559
504,0.05424,0.09781,-0.00308,0.02367
505,0.0512,0.09261,-0.00302,0.0213
506,0.04634,0.09089,-0.00406,0.01691
507,0.04157,0.08782,-0.00194,0.01356
508,0.03931,0.08438,-0.00444,0.01307
509,0.03556,0.08316,-0.00182,0.01021
510,0.03286,0.08236,-0.00282,0.00951
511,0.02939,0.07985,-0.00441,0.00835
512,0.02946,0.08093,-0.00291,0.00731
513,0.0262,0.07708,-0.00147,0.00649
514,0.02566,0.07802,-0.00166,0.00544
515,0.02248,0.07473,-0.0033,0.00568
516,0.02322,0.07271,-0.00386,0.00399
517,0.02116,0.07275,-0.00385,0.00465
518,0.02158,0.0717,-0.00618,0.00326
519,0.01976,0.07217,-0.00507,0.0014
520,0.01894,0.07078,-0.00724,-1.4317E-4
521,0.01978,0.06901,-0.00503,-0.00141
522,0.01837,0.06858,-0.00692,-8.57234E-4
523,0.01862,0.07111,-0.0071,-6.99759E-4
524,0.01754,0.06838,-0.00759,-0.00198
525,0.01668,0.06527,-0.00976,-0.00162
526,0.0169,0.06569,-0.00916,-0.00204
527,0.01489,0.06644,-0.00972,-0.00246
528,0.0166,0.06323,-0.01143,-0.00335
529,0.01698,0.06242,-0.01267,-0.00361
530,0.01481,0.06083,-0.01282,-0.00674
531,0.01471,0.05837,-0.01507,-0.00729
532,0.01476,0.05719,-0.01422,-0.00731
533,0.01183,0.05764,-0.01366,-0.00867
534,0.01247,0.05627,-0.01527,-0.01092
535,0.01205,0.05117,-0.01614,-0.01148
536,0.01134,0.0521,-0.01705,-0.01296
537,0.01103,0.05037,-0.01742,-0.01503
538,0.0091,0.05086,-0.02147,-0.0149
539,0.00977,0.04618,-0.02193,-0.01598
540,0.00748,0.0451,-0.02379,-0.01719
541,0.00794,0.04423,-0.02395,-0.01803
542,0.00711,0.04001,-0.02566,-0.01961
543,0.0056,0.03953,-0.02753,-0.02006
544,0.00479,0.03741,-0.02821,-0.02226
545,0.00386,0.03657,-0.03043,-0.02455
546,0.00183,0.03439,-0.03218,-0.02636
547,0.00218,0.0327,-0.03287,-0.02901
548,0.00157,0.03121,-0.03514,-0.02825
549,5.19454E-4,0.02789,-0.03696,-0.02964
550,0.00177,0.02579,-0.03545,-0.03093
551,-7.77483E-4,0.02575,-0.03836,-0.03324
552,-0.0025,0.02335,-0.03953,-0.03519
553,-0.00152,0.02364,-0.04061,-0.03426
554,-0.00222,0.0211,-0.04084,-0.03487
555,-0.0035,0.02057,-0.04407,-0.03683
556,-0.00511,0.01793,-0.04302,-0.0378
557,-0.0054,0.01691,-0.04612,-0.04052
558,-0.00429,0.01649,-0.04651,-0.04111
559,-0.00539,0.01462,-0.04743,-0.04234
560,-0.00542,0.01473,-0.04774,-0.04093
561,-0.00534,0.0132,-0.04942,-0.03997
562,-0.00589,0.01398,-0.04971,-0.04203
563,-0.00713,0.01485,-0.05072,-0.04282
564,-0.00631,0.01047,-0.05164,-0.04542
565,-0.00627,0.01093,-0.05022,-0.0458
566,-0.00638,0.00872,-0.05242,-0.0461
567,-0.00549,0.01001,-0.0512,-0.04623
568,-0.00745,0.0103,-0.05293,-0.04723
569,-0.00659,0.00813,-0.05369,-0.0472
570,-0.0072,0.00755,-0.05328,-0.04728
571,-0.00621,0.00932,-0.05292,-0.04967
572,-0.00611,0.00729,-0.05572,-0.04965
573,-0.00727,0.0067,-0.05548,-0.04894
574,-0.00691,0.00731,-0.05496,-0.04806
575,-0.00599,0.00511,-0.05604,-0.04872
576,-0.0058,0.00611,-0.05584,-0.04794
577,-0.00654,0.00424,-0.05678,-0.04968
578,-0.00612,0.00407,-0.05688,-0.0504
579,-0.00514,0.0022,-0.05625,-0.05133
580,-0.00616,0.00703,-0.0562,-0.05076
581,-0.00615,0.005,-0.05753,-0.05289
582,-0.00578,0.00407,-0.05819,-0.05125
583,-0.00509,0.00417,-0.05804,-0.0524
584,-0.00486,0.00373,-0.05787,-0.05234
585,-0.00491,0.0041,-0.05939,-0.05364
586,-0.00444,0.00443,-0.05904,-0.05287
587,-0.00363,0.00159,-0.05967,-0.05339
588,-0.00222,0.00321,-0.06025,-0.05426
589,-0.00378,0.00252,-0.05996,-0.0542
590,-0.00309,0.00409,-0.06008,-0.05411
591,-0.00264,0.00144,-0.06042,-0.05371
592,-0.00274,0.00149,-0.05868,-0.05505
593,-0.00202,6.15299E-4,-0.06111,-0.05541
594,-0.00178,2.33054E-5,-0.06163,-0.0537
595,-0.00142,6.54876E-4,-0.06155,-0.0548
596,-3.79205E-4,6.15716E-5,-0.06102,-0.05636
597,-0.00217,2.78354E-4,-0.0623,-0.05491
598,-7.71165E-4,0.00103,-0.06238,-0.05547
599,-0.00193,-9.0301E-4,-0.06291,-0.05623
600,-5.43475E-4,-8.70824E-4,-0.06239,-0.05741
